Time(s),Position(m),Velocity(m/s),Force(N),Energy_Total(J)
0.0,0.99999019,-0.009810000000000001,0.0,2.4721078742514
0.001,0.99997057,-0.019620000000000002,0.0,2.4720957485028
0.002,0.99994114,-0.029430000000000005,0.0,2.4720836227542002
0.003,0.9999019,-0.039240000000000004,0.0,2.4720714970056004
0.004,0.99985285,-0.04905,0.0,2.4720593712570005
0.005,0.99979399,-0.05886,0.0,2.4720472455084006
0.006,0.99972532,-0.06867000000000001,0.0,2.4720351197598003
0.007,0.99964684,-0.07848000000000001,0.0,2.4720229940112004
0.008,0.99955855,-0.08829000000000001,0.0,2.4720108682626005
0.009000000000000001,0.9994604500000001,-0.0981,0.0,2.471998742514
0.010000000000000002,0.9993525400000001,-0.10791,0.0,2.4719866167654003
0.011000000000000003,0.9992348200000001,-0.11772,0.0,2.4719744910168004
0.012000000000000004,0.9991072900000001,-0.12753,0.0,2.4719623652682006
0.013000000000000005,0.9989699500000001,-0.13734000000000002,0.0,2.4719502395196007
0.014000000000000005,0.9988228000000001,-0.14715000000000003,0.0,2.471938113771001
0.015000000000000006,0.9986658400000001,-0.15696000000000004,0.0,2.4719259880224005
0.016000000000000007,0.9984990700000002,-0.16677000000000006,0.0,2.4719138622738006
0.017000000000000008,0.9983224900000002,-0.17658000000000007,0.0,2.4719017365252007
0.01800000000000001,0.9981361000000002,-0.18639000000000008,0.0,2.471889610776601
0.01900000000000001,0.9979399000000002,-0.1962000000000001,0.0,2.471877485028001
0.02000000000000001,0.9977338900000002,-0.2060100000000001,0.0,2.471865359279401
0.02100000000000001,0.9975180700000003,-0.21582000000000012,0.0,2.471853233530801
0.022000000000000013,0.9972924400000003,-0.22563000000000014,0.0,2.471841107782201
0.023000000000000013,0.9970570000000003,-0.23544000000000015,0.0,2.471828982033601
0.024000000000000014,0.9968117500000003,-0.24525000000000016,0.0,2.471816856285001
0.025000000000000015,0.9965566900000004,-0.2550600000000002,0.0,2.4718047305364013
0.026000000000000016,0.9962918200000004,-0.26487000000000016,0.0,2.4717926047878014
0.027000000000000017,0.9960171400000004,-0.27468000000000015,0.0,2.4717804790392015
0.028000000000000018,0.9957326500000004,-0.28449000000000013,0.0,2.4717683532906016
0.02900000000000002,0.9954383500000005,-0.2943000000000001,0.0,2.4717562275420017
0.03000000000000002,0.9951342400000005,-0.3041100000000001,0.0,2.4717441017934014
0.03100000000000002,0.9948203200000005,-0.3139200000000001,0.0,2.4717319760448015
0.03200000000000002,0.9944965900000006,-0.3237300000000001,0.0,2.471719850296202
0.03300000000000002,0.9941630500000006,-0.33354000000000006,0.0,2.471707724547602
0.03400000000000002,0.9938197000000006,-0.34335000000000004,0.0,2.471695598799002
0.035000000000000024,0.9934665400000007,-0.35316000000000003,0.0,2.471683473050402
0.036000000000000025,0.9931035700000007,-0.36297,0.0,2.4716713473018017
0.037000000000000026,0.9927307900000008,-0.37278,0.0,2.4716592215532023
0.03800000000000003,0.9923482000000008,-0.38259,0.0,2.4716470958046024
0.03900000000000003,0.9919558000000008,-0.39239999999999997,0.0,2.4716349700560025
0.04000000000000003,0.9915535900000009,-0.40220999999999996,0.0,2.4716228443074026
0.04100000000000003,0.9911415700000009,-0.41201999999999994,0.0,2.4716107185588028
0.04200000000000003,0.990719740000001,-0.4218299999999999,0.0,2.471598592810203
0.04300000000000003,0.990288100000001,-0.4316399999999999,0.0,2.471586467061603
0.04400000000000003,0.989846650000001,-0.4414499999999999,0.0,2.4715743413130027
0.04500000000000003,0.9893953900000011,-0.4512599999999999,0.0,2.471562215564403
0.046000000000000034,0.9889343200000011,-0.46106999999999987,0.0,2.4715500898158034
0.047000000000000035,0.9884634400000012,-0.47087999999999985,0.0,2.4715379640672035
0.048000000000000036,0.9879827500000012,-0.48068999999999984,0.0,2.471525838318603
0.04900000000000004,0.9874922500000013,-0.4904999999999998,0.0,2.4715137125700033
0.05000000000000004,0.9869919400000013,-0.5003099999999998,0.0,2.4715015868214034
0.05100000000000004,0.9864818200000014,-0.5101199999999998,0.0,2.4714894610728035
0.05200000000000004,0.9859618900000015,-0.5199299999999998,0.0,2.4714773353242037
0.05300000000000004,0.9854321500000015,-0.5297399999999998,0.0,2.471465209575604
0.05400000000000004,0.9848926000000016,-0.5395499999999998,0.0,2.471453083827004
0.05500000000000004,0.9843432400000015,-0.5493599999999997,0.0,2.471440958078404
0.05600000000000004,0.9837840700000015,-0.5591699999999997,0.0,2.471428832329804
0.057000000000000044,0.9832150900000014,-0.5689799999999997,0.0,2.471416706581204
0.058000000000000045,0.9826363000000014,-0.5787899999999997,0.0,2.4714045808326035
0.059000000000000045,0.9820477000000013,-0.5885999999999997,0.0,2.4713924550840036
0.060000000000000046,0.9814492900000013,-0.5984099999999997,0.0,2.4713803293354033
0.06100000000000005,0.9808410700000012,-0.6082199999999996,0.0,2.4713682035868034
0.06200000000000005,0.9802230400000012,-0.6180299999999996,0.0,2.471356077838203
0.06300000000000004,0.9795952000000011,-0.6278399999999996,0.0,2.4713439520896032
0.06400000000000004,0.9789575500000011,-0.6376499999999996,0.0,2.471331826341003
0.06500000000000004,0.978310090000001,-0.6474599999999996,0.0,2.4713197005924026
0.06600000000000004,0.977652820000001,-0.6572699999999996,0.0,2.4713075748438027
0.06700000000000005,0.9769857400000009,-0.6670799999999996,0.0,2.471295449095203
0.06800000000000005,0.9763088500000009,-0.6768899999999995,0.0,2.4712833233466025
0.06900000000000005,0.9756221500000009,-0.6866999999999995,0.0,2.471271197598002
0.07000000000000005,0.9749256400000008,-0.6965099999999995,0.0,2.4712590718494023
0.07100000000000005,0.9742193200000008,-0.7063199999999995,0.0,2.471246946100802
0.07200000000000005,0.9735031900000007,-0.7161299999999995,0.0,2.471234820352202
0.07300000000000005,0.9727772500000007,-0.7259399999999995,0.0,2.4712226946036018
0.07400000000000005,0.9720415000000007,-0.7357499999999995,0.0,2.471210568855002
0.07500000000000005,0.9712959400000006,-0.7455599999999994,0.0,2.4711984431064016
0.07600000000000005,0.9705405700000006,-0.7553699999999994,0.0,2.4711863173578017
0.07700000000000005,0.9697753900000006,-0.7651799999999994,0.0,2.471174191609202
0.07800000000000006,0.9690004000000005,-0.7749899999999994,0.0,2.4711620658606015
0.07900000000000006,0.9682156000000005,-0.7847999999999994,0.0,2.471149940112001
0.08000000000000006,0.9674209900000005,-0.7946099999999994,0.0,2.4711378143634013
0.08100000000000006,0.9666165700000005,-0.8044199999999994,0.0,2.4711256886148014
0.08200000000000006,0.9658023400000004,-0.8142299999999993,0.0,2.471113562866201
0.08300000000000006,0.9649783000000004,-0.8240399999999993,0.0,2.471101437117601
0.08400000000000006,0.9641444500000004,-0.8338499999999993,0.0,2.471089311369001
0.08500000000000006,0.9633007900000004,-0.8436599999999993,0.0,2.471077185620401
0.08600000000000006,0.9624473200000003,-0.8534699999999993,0.0,2.471065059871801
0.08700000000000006,0.9615840400000003,-0.8632799999999993,0.0,2.471052934123201
0.08800000000000006,0.9607109500000003,-0.8730899999999993,0.0,2.471040808374601
0.08900000000000007,0.9598280500000003,-0.8828999999999992,0.0,2.4710286826260006
0.09000000000000007,0.9589353400000002,-0.8927099999999992,0.0,2.4710165568774007
0.09100000000000007,0.9580328200000002,-0.9025199999999992,0.0,2.471004431128801
0.09200000000000007,0.9571204900000002,-0.9123299999999992,0.0,2.4709923053802005
0.09300000000000007,0.9561983500000002,-0.9221399999999992,0.0,2.4709801796316007
0.09400000000000007,0.9552664000000002,-0.9319499999999992,0.0,2.470968053883001
0.09500000000000007,0.9543246400000002,-0.9417599999999992,0.0,2.4709559281344005
0.09600000000000007,0.9533730700000002,-0.9515699999999991,0.0,2.4709438023858006
0.09700000000000007,0.9524116900000001,-0.9613799999999991,0.0,2.4709316766372007
0.09800000000000007,0.9514405000000001,-0.9711899999999991,0.0,2.470919550888601
0.09900000000000007,0.9504595000000001,-0.9809999999999991,0.0,2.4709074251400005
0.10000000000000007,0.9494686900000001,-0.9908099999999991,0.0,2.4708952993914
0.10100000000000008,0.9484680700000001,-1.0006199999999992,0.0,2.4708831736428003
0.10200000000000008,0.9474576400000001,-1.0104299999999993,0.0,2.4708710478942004
0.10300000000000008,0.9464374000000001,-1.0202399999999994,0.0,2.4708589221456005
0.10400000000000008,0.9454073500000001,-1.0300499999999995,0.0,2.4708467963970002
0.10500000000000008,0.9443674900000001,-1.0398599999999996,0.0,2.4708346706484003
0.10600000000000008,0.9433178200000001,-1.0496699999999997,0.0,2.4708225448998005
0.10700000000000008,0.9422583400000001,-1.0594799999999998,0.0,2.4708104191512006
0.10800000000000008,0.9411890500000001,-1.0692899999999999,0.0,2.4707982934026003
0.10900000000000008,0.9401099500000001,-1.0791,0.0,2.4707861676540004
0.11000000000000008,0.9390210400000001,-1.08891,0.0,2.4707740419054005
0.11100000000000008,0.9379223200000001,-1.0987200000000001,0.0,2.4707619161568006
0.11200000000000009,0.9368137900000001,-1.1085300000000002,0.0,2.4707497904082008
0.11300000000000009,0.9356954500000001,-1.1183400000000003,0.0,2.4707376646596004
0.11400000000000009,0.9345673000000001,-1.1281500000000004,0.0,2.4707255389110006
0.11500000000000009,0.9334293400000001,-1.1379600000000005,0.0,2.4707134131624007
0.11600000000000009,0.9322815700000001,-1.1477700000000006,0.0,2.470701287413801
0.11700000000000009,0.9311239900000001,-1.1575800000000007,0.0,2.470689161665201
0.11800000000000009,0.9299566000000001,-1.1673900000000008,0.0,2.470677035916601
0.11900000000000009,0.9287794000000001,-1.177200000000001,0.0,2.4706649101680007
0.12000000000000009,0.9275923900000002,-1.187010000000001,0.0,2.4706527844194013
0.1210000000000001,0.9263955700000002,-1.196820000000001,0.0,2.470640658670801
0.1220000000000001,0.9251889400000002,-1.2066300000000012,0.0,2.4706285329222015
0.1230000000000001,0.9239725000000002,-1.2164400000000013,0.0,2.470616407173601
0.1240000000000001,0.9227462500000002,-1.2262500000000014,0.0,2.4706042814250013
0.12500000000000008,0.9215101900000002,-1.2360600000000015,0.0,2.4705921556764014
0.12600000000000008,0.9202643200000002,-1.2458700000000016,0.0,2.4705800299278016
0.12700000000000009,0.9190086400000003,-1.2556800000000017,0.0,2.4705679041792017
0.12800000000000009,0.9177431500000003,-1.2654900000000018,0.0,2.470555778430602
0.1290000000000001,0.9164678500000003,-1.2753000000000019,0.0,2.470543652682002
0.1300000000000001,0.9151827400000003,-1.285110000000002,0.0,2.4705315269334016
0.1310000000000001,0.9138878200000004,-1.294920000000002,0.0,2.4705194011848017
0.1320000000000001,0.9125830900000004,-1.3047300000000022,0.0,2.470507275436202
0.1330000000000001,0.9112685500000004,-1.3145400000000023,0.0,2.470495149687602
0.1340000000000001,0.9099442000000004,-1.3243500000000024,0.0,2.470483023939002
0.1350000000000001,0.9086100400000005,-1.3341600000000025,0.0,2.470470898190402
0.1360000000000001,0.9072660700000005,-1.3439700000000026,0.0,2.4704587724418023
0.1370000000000001,0.9059122900000005,-1.3537800000000026,0.0,2.4704466466932025
0.1380000000000001,0.9045487000000005,-1.3635900000000027,0.0,2.4704345209446026
0.1390000000000001,0.9031753000000006,-1.3734000000000028,0.0,2.4704223951960027
0.1400000000000001,0.9017920900000006,-1.383210000000003,0.0,2.470410269447403
0.1410000000000001,0.9003990700000006,-1.393020000000003,0.0,2.4703981436988025
0.1420000000000001,0.8989962400000007,-1.4028300000000031,0.0,2.470386017950203
0.1430000000000001,0.8975836000000007,-1.4126400000000032,0.0,2.4703738922016028
0.1440000000000001,0.8961611500000007,-1.4224500000000033,0.0,2.4703617664530033
0.1450000000000001,0.8947288900000008,-1.4322600000000034,0.0,2.4703496407044034
0.1460000000000001,0.8932868200000008,-1.4420700000000035,0.0,2.4703375149558036
0.1470000000000001,0.8918349400000009,-1.4518800000000036,0.0,2.4703253892072037
0.1480000000000001,0.8903732500000009,-1.4616900000000037,0.0,2.470313263458604
0.1490000000000001,0.8889017500000009,-1.4715000000000038,0.0,2.470301137710004
0.1500000000000001,0.887420440000001,-1.481310000000004,0.0,2.470289011961404
0.1510000000000001,0.885929320000001,-1.491120000000004,0.0,2.4702768862128046
0.1520000000000001,0.8844283900000011,-1.500930000000004,0.0,2.4702647604642043
0.1530000000000001,0.8829176500000011,-1.5107400000000042,0.0,2.470252634715605
0.1540000000000001,0.8813971000000012,-1.5205500000000043,0.0,2.4702405089670045
0.1550000000000001,0.8798667400000012,-1.5303600000000044,0.0,2.470228383218405
0.1560000000000001,0.8783265700000012,-1.5401700000000045,0.0,2.470216257469805
0.1570000000000001,0.8767765900000013,-1.5499800000000046,0.0,2.4702041317212053
0.1580000000000001,0.8752168000000013,-1.5597900000000047,0.0,2.4701920059726055
0.1590000000000001,0.8736472000000013,-1.5696000000000048,0.0,2.4701798802240056
0.16000000000000011,0.8720677900000012,-1.5794100000000049,0.0,2.4701677544754053
0.16100000000000012,0.8704785700000012,-1.589220000000005,0.0,2.470155628726805
0.16200000000000012,0.8688795400000011,-1.599030000000005,0.0,2.470143502978205
0.16300000000000012,0.8672707000000011,-1.6088400000000052,0.0,2.470131377229605
0.16400000000000012,0.865652050000001,-1.6186500000000053,0.0,2.470119251481005
0.16500000000000012,0.864023590000001,-1.6284600000000053,0.0,2.470107125732405
0.16600000000000012,0.8623853200000009,-1.6382700000000054,0.0,2.4700949999838047
0.16700000000000012,0.8607372400000008,-1.6480800000000055,0.0,2.470082874235205
0.16800000000000012,0.8590793500000008,-1.6578900000000056,0.0,2.470070748486605
0.16900000000000012,0.8574116500000007,-1.6677000000000057,0.0,2.4700586227380046
0.17000000000000012,0.8557341400000007,-1.6775100000000058,0.0,2.4700464969894043
0.17100000000000012,0.8540468200000007,-1.687320000000006,0.0,2.4700343712408044
0.17200000000000013,0.8523496900000006,-1.697130000000006,0.0,2.4700222454922045
0.17300000000000013,0.8506427500000006,-1.7069400000000061,0.0,2.470010119743604
0.17400000000000013,0.8489260000000005,-1.7167500000000062,0.0,2.4699979939950043
0.17500000000000013,0.8471994400000005,-1.7265600000000063,0.0,2.469985868246404
0.17600000000000013,0.8454630700000004,-1.7363700000000064,0.0,2.469973742497804
0.17700000000000013,0.8437168900000004,-1.7461800000000065,0.0,2.4699616167492042
0.17800000000000013,0.8419609000000003,-1.7559900000000066,0.0,2.469949491000604
0.17900000000000013,0.8401951000000003,-1.7658000000000067,0.0,2.469937365252004
0.18000000000000013,0.8384194900000003,-1.7756100000000068,0.0,2.4699252395034037
0.18100000000000013,0.8366340700000002,-1.785420000000007,0.0,2.469913113754804
0.18200000000000013,0.8348388400000002,-1.795230000000007,0.0,2.469900988006204
0.18300000000000013,0.8330338000000002,-1.805040000000007,0.0,2.4698888622576036
0.18400000000000014,0.8312189500000001,-1.8148500000000072,0.0,2.4698767365090037
0.18500000000000014,0.8293942900000001,-1.8246600000000073,0.0,2.469864610760404
0.18600000000000014,0.8275598200000001,-1.8344700000000074,0.0,2.469852485011804
0.18700000000000014,0.82571554,-1.8442800000000075,0.0,2.469840359263204
0.18800000000000014,0.82386145,-1.8540900000000076,0.0,2.469828233514604
0.18900000000000014,0.82199755,-1.8639000000000077,0.0,2.469816107766004
0.19000000000000014,0.8201238399999999,-1.8737100000000078,0.0,2.469803982017404
0.19100000000000014,0.8182403199999999,-1.8835200000000079,0.0,2.4697918562688037
0.19200000000000014,0.8163469899999999,-1.893330000000008,0.0,2.469779730520204
0.19300000000000014,0.8144438499999999,-1.903140000000008,0.0,2.469767604771604
0.19400000000000014,0.8125308999999998,-1.9129500000000081,0.0,2.469755479023004
0.19500000000000015,0.8106081399999998,-1.9227600000000082,0.0,2.4697433532744038
0.19600000000000015,0.8086755699999998,-1.9325700000000083,0.0,2.469731227525804
0.19700000000000015,0.8067331899999998,-1.9423800000000084,0.0,2.4697191017772036
0.19800000000000015,0.8047809999999997,-1.9521900000000085,0.0,2.4697069760286037
0.19900000000000015,0.8028189999999997,-1.9620000000000086,0.0,2.469694850280004
0.20000000000000015,0.8008471899999997,-1.9718100000000087,0.0,2.469682724531404
0.20100000000000015,0.7988655699999997,-1.9816200000000088,0.0,2.469670598782804
0.20200000000000015,0.7968741399999997,-1.991430000000009,0.0,2.4696584730342037
0.20300000000000015,0.7948728999999997,-2.001240000000009,0.0,2.469646347285604
0.20400000000000015,0.7928618499999996,-2.011050000000009,0.0,2.469634221537004
0.20500000000000015,0.7908409899999996,-2.0208600000000088,0.0,2.4696220957884036
0.20600000000000016,0.7888103199999996,-2.0306700000000086,0.0,2.4696099700398038
0.20700000000000016,0.7867698399999996,-2.0404800000000085,0.0,2.4695978442912034
0.20800000000000016,0.7847195499999996,-2.0502900000000084,0.0,2.4695857185426036
0.20900000000000016,0.7826594499999996,-2.0601000000000083,0.0,2.4695735927940037
0.21000000000000016,0.7805895399999996,-2.069910000000008,0.0,2.4695614670454034
0.21100000000000016,0.7785098199999996,-2.079720000000008,0.0,2.469549341296803
0.21200000000000016,0.7764202899999996,-2.089530000000008,0.0,2.469537215548203
0.21300000000000016,0.7743209499999996,-2.0993400000000078,0.0,2.4695250897996033
0.21400000000000016,0.7722117999999996,-2.1091500000000076,0.0,2.4695129640510034
0.21500000000000016,0.7700928399999996,-2.1189600000000075,0.0,2.469500838302403
0.21600000000000016,0.7679640699999996,-2.1287700000000074,0.0,2.4694887125538028
0.21700000000000016,0.7658254899999996,-2.1385800000000073,0.0,2.469476586805203
0.21800000000000017,0.7636770999999996,-2.148390000000007,0.0,2.469464461056603
0.21900000000000017,0.7615188999999996,-2.158200000000007,0.0,2.469452335308003
0.22000000000000017,0.7593508899999996,-2.168010000000007,0.0,2.469440209559403
0.22100000000000017,0.7571730699999996,-2.1778200000000068,0.0,2.469428083810803
0.22200000000000017,0.7549854399999996,-2.1876300000000066,0.0,2.4694159580622026
0.22300000000000017,0.7527879999999996,-2.1974400000000065,0.0,2.4694038323136027
0.22400000000000017,0.7505807499999996,-2.2072500000000064,0.0,2.469391706565003
0.22500000000000017,0.7483636899999996,-2.2170600000000062,0.0,2.4693795808164025
0.22600000000000017,0.7461368199999996,-2.226870000000006,0.0,2.4693674550678026
0.22700000000000017,0.7439001399999996,-2.236680000000006,0.0,2.4693553293192028
0.22800000000000017,0.7416536499999996,-2.246490000000006,0.0,2.4693432035706024
0.22900000000000018,0.7393973499999996,-2.2563000000000057,0.0,2.4693310778220026
0.23000000000000018,0.7371312399999996,-2.2661100000000056,0.0,2.4693189520734027
0.23100000000000018,0.7348553199999996,-2.2759200000000055,0.0,2.4693068263248024
0.23200000000000018,0.7325695899999997,-2.2857300000000054,0.0,2.4692947005762025
0.23300000000000018,0.7302740499999997,-2.2955400000000052,0.0,2.4692825748276026
0.23400000000000018,0.7279686999999997,-2.305350000000005,0.0,2.4692704490790023
0.23500000000000018,0.7256535399999997,-2.315160000000005,0.0,2.4692583233304024
0.23600000000000018,0.7233285699999997,-2.324970000000005,0.0,2.4692461975818025
0.23700000000000018,0.7209937899999997,-2.3347800000000047,0.0,2.4692340718332026
0.23800000000000018,0.7186491999999998,-2.3445900000000046,0.0,2.4692219460846023
0.23900000000000018,0.7162947999999998,-2.3544000000000045,0.0,2.4692098203360024
0.24000000000000019,0.7139305899999998,-2.3642100000000044,0.0,2.4691976945874026
0.2410000000000002,0.7115565699999998,-2.3740200000000042,0.0,2.4691855688388022
0.2420000000000002,0.7091727399999999,-2.383830000000004,0.0,2.4691734430902024
0.2430000000000002,0.7067790999999999,-2.393640000000004,0.0,2.4691613173416025
0.2440000000000002,0.7043756499999999,-2.403450000000004,0.0,2.4691491915930026
0.2450000000000002,0.7019623899999999,-2.4132600000000037,0.0,2.4691370658444023
0.2460000000000002,0.69953932,-2.4230700000000036,0.0,2.4691249400958024
0.2470000000000002,0.69710644,-2.4328800000000035,0.0,2.4691128143472025
0.2480000000000002,0.69466375,-2.4426900000000034,0.0,2.469100688598602
